 
# QPROP Version 1.22
# 
# Propeller_0844                                                                  
# 
# Dummy motor for RPM-fixed runs                                                  
#   0.10000      R  (Ohms)                      
#   0.10000      Io (Amps)                      
#    750.00      Kv (rpm/Volt)                  
# 
#   rho =  1.2250     kg/m^3
#   mu  = 0.17800E-04 kg/m-s
#   a   =  340.00     m/s   
# 
#  1         2        3          4          5         6            7         8       9        10        11        12          13        14        15      16          17           18      19
# 
#  V(m/s)    rpm      Dbeta      T(N)       Q(N-m)    Pshaft(W)    Volts     Amps    effmot   effprop   adv       CT          CP        DV(m/s)   eff     Pelec       Pprop        cl_avg  cd_avg
#   0.000   4000.      0.000  0.8200E-01  0.2507E-02   1.050       5.363    0.2969   0.6595   0.0000   0.00000  0.1754E-01  0.8792E-02   3.3842   0.0000   1.592       0.000       0.1086  0.5844E-01
# 
#  radius   chord   beta      Cl       Cd       Re    Mach     effi     effp    Wa(m/s)     Aswirl      adv_wake
   0.0056  0.0058  24.317   0.8142  0.04663      858  0.006   0.0000   0.8675  0.9092       25.23      0.4348E-01
   0.0079  0.0075  22.999   0.7396  0.05301     1560  0.009   0.0000   0.8296   1.189       23.02      0.5495E-01
   0.0102  0.0090  21.743   0.6575  0.05620     2445  0.012   0.0000   0.7912   1.424       21.03      0.6398E-01
   0.0124  0.0103  20.550   0.5768  0.05803     3495  0.014   0.0000   0.7486   1.614       19.20      0.7083E-01
   0.0147  0.0116  19.419   0.5010  0.05921     4690  0.017   0.0000   0.7001   1.761       17.48      0.7573E-01
   0.0169  0.0128  18.351   0.4315  0.06008     6009  0.020   0.0000   0.6447   1.865       15.87      0.7891E-01
   0.0192  0.0139  17.345   0.3687  0.06083     7431  0.023   0.0000   0.5825   1.932       14.36      0.8055E-01
   0.0215  0.0148  16.401   0.3128  0.06153     8933  0.026   0.0000   0.5146   1.963       12.95      0.8087E-01
   0.0237  0.0157  15.520   0.2636  0.06223    10492  0.029   0.0000   0.4433   1.963       11.64      0.8007E-01
   0.0260  0.0164  14.701   0.2209  0.06291    12084  0.031   0.0000   0.3719   1.936       10.43      0.7834E-01
   0.0282  0.0170  13.945   0.1842  0.06355    13687  0.034   0.0000   0.3040   1.888       9.313      0.7589E-01
   0.0305  0.0176  13.252   0.1533  0.06410    15278  0.037   0.0000   0.2429   1.825       8.302      0.7294E-01
   0.0328  0.0180  12.620   0.1276  0.06450    16834  0.040   0.0000   0.1909   1.751       7.397      0.6970E-01
   0.0350  0.0183  12.052   0.1067  0.06469    18333  0.043   0.0000   0.1490   1.675       6.601      0.6641E-01
   0.0373  0.0185  11.545   0.0902  0.06461    19753  0.046   0.0000   0.1171   1.601       5.916      0.6332E-01
   0.0395  0.0186  11.101   0.0778  0.06422    21072  0.048   0.0000   0.0940   1.537       5.348      0.6066E-01
   0.0418  0.0186  10.720   0.0691  0.06348    22268  0.051   0.0000   0.0786   1.489       4.898      0.5871E-01
   0.0440  0.0184  10.401   0.0638  0.06239    23321  0.054   0.0000   0.0697   1.466       4.571      0.5773E-01
   0.0463  0.0182  10.145   0.0621  0.06098    24209  0.057   0.0000   0.0667   1.473       4.368      0.5799E-01
   0.0486  0.0178   9.951   0.0640  0.05929    24910  0.060   0.0000   0.0697   1.518       4.290      0.5973E-01
   0.0508  0.0174   9.819   0.0702  0.05743    25404  0.062   0.0000   0.0795   1.605       4.336      0.6318E-01
   0.0531  0.0168   9.750   0.0815  0.05547    25669  0.065   0.0000   0.0981   1.739       4.500      0.6850E-01
   0.0553  0.0162   9.743   0.0985  0.05349    25684  0.068   0.0000   0.1274   1.926       4.782      0.7591E-01
   0.0576  0.0154   9.799   0.1181  0.05142    25425  0.071   0.0000   0.1664   2.183       5.213      0.8616E-01
   0.0599  0.0145   9.917   0.1155  0.04869    24861  0.073   0.0000   0.1914   2.618       6.025      0.1036    
