 
# QPROP Version 1.22
# 
# Propeller_3052                                                                  
# 
# Dummy motor for RPM-fixed runs                                                  
#   0.10000      R  (Ohms)                      
#   0.10000      Io (Amps)                      
#    750.00      Kv (rpm/Volt)                  
# 
#   rho =  1.2250     kg/m^3
#   mu  = 0.17800E-04 kg/m-s
#   a   =  340.00     m/s   
# 
#  1         2        3          4          5         6            7         8       9        10        11        12          13        14        15      16          17           18      19
# 
#  V(m/s)    rpm      Dbeta      T(N)       Q(N-m)    Pshaft(W)    Volts     Amps    effmot   effprop   adv       CT          CP        DV(m/s)   eff     Pelec       Pprop        cl_avg  cd_avg
#   0.000   4000.      0.000  0.3021      0.3170E-02   1.328       5.368    0.3490   0.7088   0.0000   0.00000  0.5681E-01  0.9462E-02   6.2897   0.0000   1.874       0.000       0.3827  0.1601E-01
# 
#  radius   chord   beta      Cl       Cd       Re    Mach     effi     effp    Wa(m/s)     Aswirl      adv_wake
   0.0057  0.0086  24.574   0.3436  0.31587     1349  0.007   0.0000   0.1767  0.6417       16.35      0.2641E-01
   0.0080  0.0116  23.741   0.3536  0.21173     2579  0.009   0.0000   0.2701  0.9005       16.23      0.3702E-01
   0.0104  0.0144  22.936   0.3590  0.15365     4136  0.012   0.0000   0.3522   1.150       16.03      0.4719E-01
   0.0127  0.0170  22.158   0.3613  0.11682     5977  0.015   0.0000   0.4235   1.389       15.76      0.5683E-01
   0.0150  0.0193  21.407   0.3616  0.09162     8055  0.018   0.0000   0.4851   1.616       15.44      0.6591E-01
   0.0174  0.0214  20.683   0.3605  0.07350    10327  0.021   0.0000   0.5383   1.830       15.10      0.7440E-01
   0.0197  0.0232  19.987   0.3587  0.06000    12745  0.023   0.0000   0.5845   2.032       14.74      0.8232E-01
   0.0221  0.0248  19.317   0.3566  0.04968    15264  0.026   0.0000   0.6246   2.221       14.37      0.8967E-01
   0.0244  0.0261  18.675   0.3544  0.04163    17837  0.029   0.0000   0.6598   2.397       14.00      0.9649E-01
   0.0267  0.0273  18.060   0.3526  0.03524    20416  0.032   0.0000   0.6909   2.563       13.62      0.1028    
   0.0291  0.0281  17.472   0.3513  0.03009    22954  0.035   0.0000   0.7185   2.717       13.25      0.1087    
   0.0314  0.0288  16.911   0.3508  0.02590    25402  0.038   0.0000   0.7433   2.861       12.89      0.1141    
   0.0338  0.0292  16.378   0.3514  0.02245    27712  0.041   0.0000   0.7657   2.995       12.53      0.1191    
   0.0361  0.0293  15.871   0.3532  0.01958    29835  0.043   0.0000   0.7862   3.120       12.19      0.1238    
   0.0384  0.0293  15.392   0.3564  0.01718    31724  0.046   0.0000   0.8051   3.238       11.86      0.1281    
   0.0408  0.0289  14.940   0.3612  0.01515    33328  0.049   0.0000   0.8225   3.348       11.54      0.1321    
   0.0431  0.0284  14.515   0.3679  0.01343    34600  0.052   0.0000   0.8387   3.451       11.24      0.1359    
   0.0454  0.0276  14.117   0.3764  0.01196    35491  0.055   0.0000   0.8536   3.549       10.95      0.1395    
   0.0478  0.0266  13.747   0.3867  0.01070    35951  0.058   0.0000   0.8674   3.643       10.67      0.1430    
   0.0501  0.0253  13.403   0.3987  0.00963    35931  0.061   0.0000   0.8799   3.734       10.42      0.1463    
   0.0525  0.0238  13.087   0.4114  0.00873    35383  0.064   0.0000   0.8910   3.826       10.19      0.1497    
   0.0548  0.0220  12.798   0.4232  0.00796    34257  0.067   0.0000   0.9006   3.926       9.999      0.1534    
   0.0571  0.0200  12.536   0.4299  0.00732    32500  0.069   0.0000   0.9083   4.049       9.885      0.1581    
   0.0595  0.0178  12.301   0.4199  0.00673    30057  0.072   0.0000   0.9137   4.238       9.944      0.1655    
   0.0618  0.0153  12.094   0.3426  0.00596    26847  0.075   0.0000   0.9121   4.687       10.61      0.1838    
