 
# QPROP Version 1.22
# 
# Propeller_3423                                                                  
# 
# Dummy motor for RPM-fixed runs                                                  
#   0.10000      R  (Ohms)                      
#   0.10000      Io (Amps)                      
#    750.00      Kv (rpm/Volt)                  
# 
#   rho =  1.2250     kg/m^3
#   mu  = 0.17800E-04 kg/m-s
#   a   =  340.00     m/s   
# 
#  1         2        3          4          5         6            7         8       9        10        11        12          13        14        15      16          17           18      19
# 
#  V(m/s)    rpm      Dbeta      T(N)       Q(N-m)    Pshaft(W)    Volts     Amps    effmot   effprop   adv       CT          CP        DV(m/s)   eff     Pelec       Pprop        cl_avg  cd_avg
#   0.000   4000.      0.000  0.3296      0.3798E-02   1.591       5.373    0.3983   0.7434   0.0000   0.00000  0.4066E-01  0.6693E-02   5.9128   0.0000   2.140       0.000       0.3287  0.2023E-01
# 
#  radius   chord   beta      Cl       Cd       Re    Mach     effi     effp    Wa(m/s)     Aswirl      adv_wake
   0.0058  0.0081  24.058   0.3710  0.21126     1288  0.007   0.0000   0.2974  0.7214       18.18      0.2726E-01
   0.0084  0.0102  22.246   0.4365  0.10889     2342  0.010   0.0000   0.5234   1.054       18.33      0.3990E-01
   0.0111  0.0120  20.529   0.4787  0.06093     3643  0.013   0.0000   0.6913   1.377       18.26      0.5209E-01
   0.0137  0.0138  18.907   0.5040  0.03779     5158  0.016   0.0000   0.7928   1.684       18.02      0.6352E-01
   0.0163  0.0153  17.380   0.5168  0.02642     6854  0.019   0.0000   0.8475   1.970       17.64      0.7400E-01
   0.0189  0.0167  15.947   0.5204  0.02036     8699  0.022   0.0000   0.8768   2.233       17.16      0.8344E-01
   0.0215  0.0179  14.610   0.5170  0.01638    10656  0.025   0.0000   0.8955   2.471       16.62      0.9180E-01
   0.0242  0.0190  13.368   0.5087  0.01301    12690  0.029   0.0000   0.9115   2.684       16.02      0.9907E-01
   0.0268  0.0198  12.221   0.4968  0.00974    14763  0.032   0.0000   0.9285   2.870       15.39      0.1053    
   0.0294  0.0206  11.168   0.4824  0.00657    16840  0.035   0.0000   0.9474   3.030       14.74      0.1105    
   0.0320  0.0211  10.211   0.4665  0.00378    18880  0.038   0.0000   0.9668   3.164       14.08      0.1147    
   0.0346  0.0215   9.348   0.4496  0.00168    20846  0.041   0.0000   0.9837   3.274       13.42      0.1180    
   0.0373  0.0217   8.581   0.4323  0.00056    22697  0.045   0.0000   0.9940   3.359       12.75      0.1204    
   0.0399  0.0217   7.908   0.4149  0.00059    24396  0.048   0.0000   0.9931   3.421       12.09      0.1220    
   0.0425  0.0216   7.331   0.3976  0.00181    25901  0.051   0.0000   0.9771   3.459       11.44      0.1228    
   0.0451  0.0213   6.848   0.3805  0.00413    27174  0.055   0.0000   0.9442   3.474       10.79      0.1228    
   0.0477  0.0208   6.461   0.3635  0.00734    28176  0.058   0.0000   0.8954   3.466       10.14      0.1220    
   0.0503  0.0202   6.168   0.3464  0.01117    28866  0.061   0.0000   0.8340   3.433       9.501      0.1204    
   0.0530  0.0194   5.970   0.3289  0.01534    29205  0.064   0.0000   0.7639   3.374       8.854      0.1179    
   0.0556  0.0184   5.867   0.3104  0.01968    29155  0.068   0.0000   0.6881   3.287       8.199      0.1144    
   0.0582  0.0172   5.860   0.2900  0.02417    28674  0.071   0.0000   0.6065   3.167       7.529      0.1099    
   0.0608  0.0159   5.947   0.2666  0.02916    27724  0.074   0.0000   0.5160   3.011       6.836      0.1042    
   0.0635  0.0144   6.129   0.2378  0.03546    26265  0.078   0.0000   0.4115   2.816       6.117      0.9713E-01
   0.0661  0.0128   6.406   0.1992  0.04459    24256  0.081   0.0000   0.2900   2.585       5.383      0.8895E-01
   0.0687  0.0110   6.778   0.1344  0.05855    21653  0.084   0.0000   0.1546   2.378       4.758      0.8168E-01
