 
# QPROP Version 1.22
# 
# Propeller_4686                                                                  
# 
# Dummy motor for RPM-fixed runs                                                  
#   0.10000      R  (Ohms)                      
#   0.10000      Io (Amps)                      
#    750.00      Kv (rpm/Volt)                  
# 
#   rho =  1.2250     kg/m^3
#   mu  = 0.17800E-04 kg/m-s
#   a   =  340.00     m/s   
# 
#  1         2        3          4          5         6            7         8       9        10        11        12          13        14        15      16          17           18      19
# 
#  V(m/s)    rpm      Dbeta      T(N)       Q(N-m)    Pshaft(W)    Volts     Amps    effmot   effprop   adv       CT          CP        DV(m/s)   eff     Pelec       Pprop        cl_avg  cd_avg
#   0.000   4000.      0.000  0.3446      0.3922E-02   1.643       5.374    0.4080   0.7492   0.0000   0.00000  0.3404E-01  0.5235E-02   5.7189   0.0000   2.193       0.000       0.4955  0.2792E-01
# 
#  radius   chord   beta      Cl       Cd       Re    Mach     effi     effp    Wa(m/s)     Aswirl      adv_wake
   0.0059  0.0062  24.475   0.9416  0.02626      958  0.007   0.0000   0.9312  0.9440       24.97      0.3706E-01
   0.0087  0.0066  23.444   1.0838  0.01429     1531  0.010   0.0000   0.9643   1.302       22.90      0.4950E-01
   0.0115  0.0071  22.440   1.1638  0.00754     2169  0.013   0.0000   0.9812   1.625       21.32      0.6040E-01
   0.0142  0.0074  21.464   1.2056  0.00315     2865  0.016   0.0000   0.9919   1.918       20.02      0.7008E-01
   0.0170  0.0078  20.514   1.2217  0.00038     3615  0.020   0.0000   0.9990   2.184       18.90      0.7871E-01
   0.0198  0.0081  19.592   1.2192 -0.00116     4412  0.023   0.0000   1.0033   2.424       17.90      0.8638E-01
   0.0226  0.0084  18.696   1.2030 -0.00173     5250  0.027   0.0000   1.0052   2.641       16.98      0.9315E-01
   0.0253  0.0087  17.828   1.1761 -0.00155     6125  0.030   0.0000   1.0050   2.833       16.13      0.9905E-01
   0.0281  0.0090  16.986   1.1407 -0.00080     7031  0.033   0.0000   1.0027   3.002       15.32      0.1041    
   0.0309  0.0092  16.172   1.0985  0.00041     7962  0.037   0.0000   0.9985   3.147       14.54      0.1083    
   0.0337  0.0094  15.384   1.0506  0.00198     8913  0.040   0.0000   0.9919   3.267       13.79      0.1117    
   0.0365  0.0096  14.624   0.9980  0.00384     9877  0.044   0.0000   0.9828   3.363       13.06      0.1143    
   0.0393  0.0098  13.890   0.9415  0.00597    10850  0.047   0.0000   0.9705   3.433       12.34      0.1161    
   0.0420  0.0100  13.184   0.8814  0.00832    11825  0.051   0.0000   0.9543   3.477       11.63      0.1169    
   0.0448  0.0101  12.504   0.8182  0.01090    12797  0.054   0.0000   0.9330   3.494       10.93      0.1169    
   0.0476  0.0102  11.852   0.7523  0.01371    13759  0.058   0.0000   0.9053   3.483       10.23      0.1160    
   0.0504  0.0103  11.226   0.6837  0.01674    14707  0.061   0.0000   0.8690   3.441       9.518      0.1141    
   0.0531  0.0103  10.628   0.6127  0.02003    15634  0.065   0.0000   0.8215   3.366       8.801      0.1112    
   0.0559  0.0104  10.056   0.5392  0.02358    16534  0.068   0.0000   0.7595   3.255       8.068      0.1071    
   0.0587  0.0104   9.512   0.4632  0.02743    17402  0.072   0.0000   0.6790   3.104       7.311      0.1018    
   0.0615  0.0104   8.994   0.3848  0.03162    18232  0.075   0.0000   0.5763   2.906       6.520      0.9497E-01
   0.0643  0.0103   8.504   0.3040  0.03621    19016  0.079   0.0000   0.4496   2.651       5.679      0.8637E-01
   0.0670  0.0103   8.040   0.2211  0.04126    19751  0.082   0.0000   0.3039   2.324       4.764      0.7551E-01
   0.0698  0.0102   7.604   0.1369  0.04694    20428  0.086   0.0000   0.1562   1.899       3.730      0.6151E-01
   0.0726  0.0101   7.195   0.0538  0.05352    21042  0.089   0.0000   0.0402   1.322       2.493      0.4272E-01
