 
# QPROP Version 1.22
# 
# Propeller_2407                                                                  
# 
# Dummy motor for RPM-fixed runs                                                  
#   0.10000      R  (Ohms)                      
#   0.10000      Io (Amps)                      
#    750.00      Kv (rpm/Volt)                  
# 
#   rho =  1.2250     kg/m^3
#   mu  = 0.17800E-04 kg/m-s
#   a   =  340.00     m/s   
# 
#  1         2        3          4          5         6            7         8       9        10        11        12          13        14        15      16          17           18      19
# 
#  V(m/s)    rpm      Dbeta      T(N)       Q(N-m)    Pshaft(W)    Volts     Amps    effmot   effprop   adv       CT          CP        DV(m/s)   eff     Pelec       Pprop        cl_avg  cd_avg
#   0.000   4000.      0.000  0.1977      0.1523E-02  0.6381       5.355    0.2196   0.5425   0.0000   0.00000  0.3963E-01  0.4925E-02   5.1697   0.0000   1.176       0.000       0.3227  0.7017E-02
# 
#  radius   chord   beta      Cl       Cd       Re    Mach     effi     effp    Wa(m/s)     Aswirl      adv_wake
   0.0057  0.0056  24.300   0.8557  0.03474      824  0.006   0.0000   0.9031  0.9132       25.25      0.4299E-01
   0.0080  0.0067  22.944   0.8483  0.02547     1415  0.009   0.0000   0.9228   1.210       23.31      0.5525E-01
   0.0103  0.0078  21.647   0.8137  0.02038     2133  0.012   0.0000   0.9313   1.473       21.67      0.6568E-01
   0.0126  0.0087  20.408   0.7675  0.01710     2965  0.015   0.0000   0.9352   1.704       20.21      0.7450E-01
   0.0149  0.0096  19.229   0.7170  0.01479     3896  0.017   0.0000   0.9364   1.904       18.87      0.8187E-01
   0.0171  0.0104  18.108   0.6656  0.01307     4910  0.020   0.0000   0.9359   2.074       17.64      0.8795E-01
   0.0194  0.0111  17.046   0.6154  0.01175     5993  0.023   0.0000   0.9341   2.217       16.49      0.9286E-01
   0.0217  0.0118  16.042   0.5675  0.01070     7126  0.026   0.0000   0.9311   2.335       15.42      0.9674E-01
   0.0241  0.0124  15.098   0.5226  0.00986     8294  0.029   0.0000   0.9271   2.429       14.42      0.9971E-01
   0.0264  0.0128  14.212   0.4812  0.00917     9480  0.032   0.0000   0.9221   2.502       13.48      0.1019    
   0.0286  0.0132  13.385   0.4434  0.00860    10668  0.034   0.0000   0.9163   2.557       12.61      0.1034    
   0.0310  0.0136  12.617   0.4094  0.00812    11840  0.037   0.0000   0.9095   2.597       11.81      0.1044    
   0.0333  0.0138  11.907   0.3793  0.00773    12979  0.040   0.0000   0.9021   2.624       11.07      0.1049    
   0.0356  0.0140  11.257   0.3531  0.00739    14069  0.043   0.0000   0.8941   2.642       10.39      0.1051    
   0.0379  0.0140  10.665   0.3308  0.00712    15092  0.046   0.0000   0.8857   2.654       9.778      0.1052    
   0.0402  0.0140  10.132   0.3125  0.00689    16033  0.049   0.0000   0.8774   2.663       9.230      0.1052    
   0.0425  0.0140   9.658   0.2981  0.00670    16875  0.052   0.0000   0.8695   2.672       8.744      0.1053    
   0.0447  0.0138   9.242   0.2878  0.00655    17602  0.055   0.0000   0.8625   2.684       8.322      0.1056    
   0.0470  0.0135   8.886   0.2817  0.00644    18196  0.057   0.0000   0.8568   2.703       7.961      0.1061    
   0.0493  0.0132   8.588   0.2799  0.00636    18643  0.060   0.0000   0.8529   2.731       7.661      0.1071    
   0.0516  0.0128   8.349   0.2824  0.00631    18925  0.063   0.0000   0.8511   2.771       7.422      0.1085    
   0.0539  0.0123   8.168   0.2886  0.00630    19027  0.066   0.0000   0.8511   2.829       7.249      0.1107    
   0.0563  0.0118   8.047   0.2962  0.00632    18932  0.069   0.0000   0.8526   2.914       7.160      0.1140    
   0.0585  0.0111   7.984   0.2959  0.00634    18621  0.072   0.0000   0.8532   3.062       7.229      0.1198    
   0.0609  0.0104   7.980   0.2459  0.00633    18064  0.074   0.0000   0.8387   3.423       7.791      0.1343    
